Date,Open,High,Low,Close,Adj Close,Volume
2013-02-01,52.0099983215332,53.9900016784668,51.41999816894531,53.939998626708984,46.748817443847656,4319300
2013-03-01,53.65999984741211,57.470001220703125,52.970001220703125,57.349998474121094,49.70420837402344,4044500
2013-04-01,57.41999816894531,57.689998626708984,54.400001525878906,56.099998474121094,48.62087631225586,4465000
2013-05-01,56.0099983215332,57.52000045776367,55.310001373291016,56.720001220703125,49.378021240234375,4279100
2013-06-01,56.709999084472656,57.7599983215332,54.130001068115234,55.209999084472656,48.0634651184082,3483100
2013-07-01,55.4900016784668,60.11000061035156,55.36000061035156,58.38999938964844,50.831844329833984,3977500
2013-08-01,59.119998931884766,60.7400016784668,58.43000030517578,58.810001373291016,51.41934585571289,3082200
2013-09-01,59.439998626708984,60.75,57.400001525878906,60.130001068115234,52.573463439941406,3961900
2013-10-01,59.97999954223633,64.52999877929688,59.189998626708984,64.16000366210938,56.097023010253906,4377700
2013-11-01,64.41999816894531,65.25,63.06999969482422,64.91999816894531,56.761505126953125,4736100
2013-12-01,64.95999908447266,67.86000061035156,63.099998474121094,67.80999755859375,59.52121353149414,3699600
2014-01-01,67.76000213623047,68.77999877929688,62.84000015258789,63.79999923706055,56.00138473510742,9510200
2014-02-01,63.86000061035156,66.73999786376953,61.18000030517578,66.16999816894531,58.30775451660156,4547300
2014-03-01,65.52999877929688,66.37000274658203,63.11000061035156,66.0999984741211,58.24606704711914,3618800
2014-04-01,66.25,67.77999877929688,64.54000091552734,67.41999816894531,59.40922927856445,4567800
2014-05-01,67.6500015258789,67.83999633789062,65.33999633789062,66.58999633789062,58.923587799072266,3739800
2014-06-01,66.72000122070312,67.58000183105469,64.94999694824219,67.01000213623047,59.29524230957031,3594700
2014-07-01,67.26000213623047,68.0,60.88999938964844,61.099998474121094,54.06563949584961,5485100
2014-08-01,61.06999969482422,64.38999938964844,60.52000045776367,64.1500015258789,57.01591491699219,4417300
2014-09-01,64.37999725341797,65.37000274658203,60.56999969482422,60.70000076293945,53.949581146240234,5679800
2014-10-01,60.400001525878906,62.689998626708984,55.59000015258789,62.2400016784668,55.318328857421875,10128400
2014-11-01,61.72999954223633,65.87000274658203,61.34000015258789,65.25,57.99357604980469,5017100
2014-12-01,64.81999969482422,68.66999816894531,63.400001525878906,66.83999633789062,59.67522430419922,4567000
2015-01-01,67.05999755859375,67.68000030517578,61.38999938964844,63.11000061035156,56.34505081176758,5877800
2015-02-01,63.22999954223633,66.5999984741211,62.709999084472656,65.87000274658203,59.0685920715332,7049400
2015-03-01,65.87000274658203,66.55999755859375,62.56999969482422,63.52000045776367,56.96123504638672,6886700
2015-04-01,63.58000183105469,63.84000015258789,61.97999954223633,62.06999969482422,55.66096115112305,6282400
2015-05-01,64.25,66.30999755859375,62.380001068115234,63.77000045776367,57.439552307128906,9765700
2015-06-01,64.0199966430664,65.83000183105469,63.310001373291016,63.77000045776367,57.439552307128906,7275300
2015-07-01,64.13999938964844,68.70999908447266,60.72999954223633,67.79000091552734,61.06047439575195,7555300
2015-08-01,67.77999877929688,70.33999633789062,64.66000366210938,67.36000061035156,60.949554443359375,5652900
2015-09-01,66.06999969482422,69.37999725341797,63.619998931884766,65.95999908447266,59.68276596069336,6371600
2015-10-01,65.94999694824219,75.25,65.79000091552734,73.55999755859375,66.55951690673828,6407700
2015-11-01,74.7699966430664,75.95999908447266,70.56999969482422,74.4800033569336,67.3919448852539,5136600
2015-12-01,74.69999694824219,75.27999877929688,71.08999633789062,72.6500015258789,66.00530242919922,4314700
2016-01-01,72.0,72.91000366210938,66.33000183105469,72.9000015258789,66.23243713378906,7320400
2016-02-01,72.29000091552734,76.19000244140625,69.87999725341797,73.70999908447266,67.26404571533203,7163000
2016-03-01,74.04000091552734,79.04000091552734,73.75,78.41000366210938,71.5530014038086,6594700
2016-04-01,78.02999877929688,80.36000061035156,75.70999908447266,76.0,69.35375213623047,5570700
2016-05-01,75.77999877929688,77.9800033569336,74.16000366210938,77.26000213623047,70.77001190185547,6470200
2016-06-01,76.86000061035156,80.13999938964844,74.2699966430664,79.12999725341797,72.48294830322266,5286300
2016-07-01,78.98999786376953,81.5,77.11000061035156,78.18000030517578,71.61273193359375,3987400
2016-08-01,78.13999938964844,79.12000274658203,75.01000213623047,77.9800033569336,71.69685363769531,4855000
2016-09-01,78.12000274658203,80.55000305175781,76.97000122070312,77.41000366210938,71.17280578613281,5757100
2016-10-01,77.06999969482422,78.0999984741211,70.87999725341797,71.44000244140625,65.68380737304688,4460900
2016-11-01,71.80999755859375,77.27999877929688,70.31999969482422,73.18000030517578,67.57979583740234,6387200
2016-12-01,73.19999694824219,75.5999984741211,71.83999633789062,73.44999694824219,67.82909393310547,6899600
2017-01-01,74.26000213623047,74.72000122070312,71.44000244140625,72.97000122070312,67.38585662841797,6274300
2017-02-01,73.29000091552734,76.19999694824219,72.44000244140625,74.51000213623047,69.10911560058594,7160000
2017-03-01,75.20999908447266,77.87000274658203,74.91999816894531,76.98999786376953,71.40934753417969,6220400
2017-04-01,76.94000244140625,80.52999877929688,75.48999786376953,80.30000305175781,74.47944641113281,5513400
2017-05-01,80.08000183105469,85.18000030517578,78.88999938964844,85.01000213623047,78.8480224609375,7082900
2017-06-01,85.25,87.94000244140625,84.86000061035156,86.86000061035156,80.88629150390625,5377100
2017-07-01,87.20999908447266,90.79000091552734,80.69000244140625,80.93000030517578,75.36410522460938,7234600
2017-08-01,81.0,83.83000183105469,80.94999694824219,83.61000061035156,78.13912963867188,5254100
2017-09-01,83.80000305175781,87.51000213623047,82.31999969482422,86.30999755859375,80.6624526977539,4443200
2017-10-01,86.80999755859375,89.68000030517578,85.88999938964844,87.06999969482422,81.37274169921875,5099200
2017-11-01,87.83000183105469,88.9000015258789,84.22000122070312,88.41000366210938,82.9320068359375,4825000
2017-12-01,88.33000183105469,89.16000366210938,85.05999755859375,86.27999877929688,80.93397521972656,5252800
2018-01-01,86.44000244140625,89.5,85.16000366210938,87.41999816894531,82.00334167480469,5608900
2018-02-01,87.23999786376953,92.31999969482422,79.97000122070312,89.41999816894531,84.18648529052734,6834200
2018-03-01,89.23999786376953,92.0999984741211,86.69000244140625,89.83000183105469,84.572509765625,5537200
2018-04-01,89.37000274658203,96.38999938964844,86.8499984741211,93.5,88.02770233154297,7154200
2018-05-01,93.44999694824219,94.94999694824219,90.83999633789062,92.31999969482422,86.91676330566406,6629100
2018-06-01,92.87999725341797,95.37000274658203,91.41999816894531,93.37999725341797,88.21890258789062,7158000
2018-07-01,92.91000366210938,104.0999984741211,92.45999908447266,102.43000030517578,96.76873016357422,5293900
2018-08-01,102.4000015258789,105.7699966430664,100.05999755859375,104.70999908447266,99.25193786621094,5225000
2018-09-01,105.31999969482422,112.30999755859375,104.58000183105469,107.73999786376953,102.12400817871094,5893500
2018-10-01,108.05000305175781,109.19999694824219,99.13999938964844,101.95999908447266,96.64527893066406,7155400
2018-11-01,102.69000244140625,107.1500015258789,95.05999755859375,104.05000305175781,98.9622802734375,6456500
2018-12-01,105.2300033569336,105.51000213623047,89.66999816894531,94.06999969482422,89.47026062011719,5408200
2019-01-01,92.7300033569336,99.27999877929688,88.26000213623047,99.12000274658203,94.27333068847656,6097800
2019-02-01,99.33000183105469,104.0,98.5199966430664,101.7300033569336,97.09298706054688,5254900
2019-03-01,102.20999908447266,106.68000030517578,99.20999908447266,106.38999938964844,101.54058074951172,4277500
2019-04-01,106.91000366210938,111.80999755859375,106.20999908447266,111.23999786376953,106.16950988769531,3847700
2019-05-01,112.2699966430664,115.5199966430664,111.29000091552734,113.2699966430664,108.45771789550781,4387100
2019-06-01,113.41000366210938,124.75,113.41000366210938,124.33999633789062,119.05741119384766,6593800
2019-07-01,125.0,126.19999694824219,119.94000244140625,121.0199966430664,115.87845611572266,5472700
2019-08-01,120.19000244140625,124.0,114.83999633789062,122.22000122070312,117.36565399169922,5841200
2019-09-01,120.80999755859375,123.20999908447266,115.87000274658203,118.44999694824219,113.74539184570312,4582700
2019-10-01,119.29000091552734,119.7300033569336,113.77999877929688,118.1500015258789,113.45730590820312,3873000
2019-11-01,113.66999816894531,115.55999755859375,108.0199966430664,112.12000274658203,107.99573516845703,6357800
2019-12-01,112.5199966430664,116.19999694824219,111.13999938964844,115.62000274658203,111.36698150634766,4976300
2020-01-01,115.5,119.0199966430664,112.73999786376953,115.51000213623047,111.26103210449219,4914800
2020-02-01,115.61000061035156,118.94999694824219,99.31999969482422,101.06999969482422,97.65398406982422,6985600
2020-03-01,101.62000274658203,107.62999725341797,79.83999633789062,99.54000091552734,96.17570495605469,11954800
2020-04-01,97.70999908447266,114.66000366210938,93.36000061035156,107.08000183105469,103.46085357666016,8389200
2020-05-01,110.55999755859375,113.33000183105469,99.11000061035156,111.38999938964844,107.9704360961914,5628200
2020-06-01,111.27999877929688,114.27999877929688,103.06999969482422,111.9800033569336,108.54232788085938,6565900
2020-07-01,111.91000366210938,120.44999694824219,110.94999694824219,115.19999694824219,111.6634750366211,6558700
2020-08-01,116.8499984741211,120.66999816894531,114.8499984741211,118.38999938964844,115.10128784179688,4060600
2020-09-01,117.94000244140625,122.44000244140625,111.16000366210938,113.19999694824219,110.05545806884766,4737700
2020-10-01,113.44999694824219,118.97000122070312,110.33999633789062,114.08999633789062,110.92073822021484,3554900
2020-11-01,115.16999816894531,129.1199951171875,114.66999816894531,126.31999969482422,123.18856048583984,3975200
2020-12-01,127.1500015258789,137.36000061035156,125.1500015258789,136.88999938964844,133.4965362548828,4209500
2021-01-01,135.9199981689453,141.3300018310547,131.82000732421875,132.97000122070312,129.67372131347656,4044500
2021-02-01,134.1300048828125,144.75999450683594,126.77999877929688,130.07000732421875,127.17362213134766,4640900
2021-03-01,130.77999877929688,145.89999389648438,129.47000122070312,141.6699981689453,138.5153350830078,6556900
2021-04-01,141.99000549316406,153.07000732421875,141.3800048828125,150.80999755859375,147.45179748535156,4327100
2021-05-01,152.16000366210938,158.97000122070312,146.4199981689453,147.30999755859375,144.39328002929688,3710900
2021-06-01,147.97999572753906,148.80999755859375,139.72999572753906,140.83999633789062,138.05137634277344,4786600
2021-07-01,141.11000061035156,141.94000244140625,128.17999267578125,128.9199981689453,126.36739349365234,4924500
2021-08-01,128.44000244140625,136.22999572753906,126.31999969482422,134.8000030517578,132.1309814453125,4280900
2021-09-01,135.11000061035156,136.22000122070312,118.87999725341797,119.3499984741211,117.33009338378906,4964500
2021-10-01,119.83999633789062,129.7899932861328,118.61000061035156,120.77999877929688,118.73588562011719,4757900
2021-11-01,119.9800033569336,135.80999755859375,119.31999969482422,119.58999633789062,117.91667175292969,5663300
2021-12-01,120.66999816894531,123.5,112.37000274658203,122.4800033569336,120.7662353515625,8566300
2022-01-01,122.44000244140625,124.13999938964844,112.44999694824219,117.30000305175781,115.6587142944336,7169200
2022-02-01,117.08999633789062,122.02999877929688,112.44000244140625,121.87999725341797,120.17462921142578,5558800
2022-03-01,121.95999908447266,122.94000244140625,110.04000091552734,117.5,116.23187255859375,5596900
2022-04-01,118.1500015258789,122.30000305175781,109.55000305175781,114.83000183105469,113.59068298339844,5116600
2022-05-01,115.41999816894531,116.97000122070312,97.19000244140625,107.08999633789062,106.2842025756836,7413800
2022-06-01,107.48999786376953,110.80999755859375,94.02999877929688,103.20999908447266,102.43340301513672,5235800
2022-07-01,103.33999633789062,109.48999786376953,97.69999694824219,107.76000213623047,106.94916534423828,5337700
2022-08-01,106.30000305175781,112.43000030517578,102.72000122070312,102.80999755859375,102.41089630126953,4466600
2022-09-01,102.36000061035156,108.2699966430664,94.87000274658203,95.02999877929688,94.66110229492188,5273000
2022-10-01,96.45999908447266,104.12000274658203,90.2300033569336,99.1500015258789,98.76510620117188,5415800
2022-11-01,99.5999984741211,107.01000213623047,92.55000305175781,106.13999938964844,106.13999938964844,4622800
2022-12-01,106.77999877929688,111.91000366210938,105.37000274658203,109.9800033569336,109.9800033569336,4788800
2023-01-01,110.58000183105469,112.20999908447266,109.44999694824219,111.2300033569336,111.2300033569336,666495
